Time (s),Voltage (V),Current (mA)
0.1383,0.508457,2.201452
0.3208,0.517551,2.243418
0.7682,0.541762,2.202329
0.8913,0.54877,2.258101
1.2548,0.549918,2.367783
1.6256,0.562832,2.413858
2.0451,0.571422,2.461851
2.3576,0.58252,2.500804
2.6819,0.592715,2.540578
3.0031,0.602617,2.594926
3.3209,0.61327,2.640015
3.6421,0.623254,2.69502
3.9611,0.633379,2.740657
4.2798,0.643996,2.789307
4.5987,0.654074,2.83341
4.9164,0.66598,2.879376
5.2508,0.676809,2.928847
5.5992,0.6895,2.948242
5.9458,0.694973,3.01908
6.2833,0.70484,3.062087
6.6169,0.714883,3.104985
6.95,0.724059,3.147225
7.2841,0.733762,3.196204
7.6204,0.744473,3.236088
7.9549,0.753977,3.292299
8.2905,0.76491,3.342318
8.6514,0.776348,3.386366
9.0027,0.785113,3.436879
9.3537,0.796434,3.477585
9.7111,0.807531,3.508813
10.0766,0.816262,3.562449
10.4336,0.826527,3.615263
10.7867,0.838293,3.653723
11.1149,0.847223,3.688621
11.4421,0.856937,3.759953
11.7707,0.86766,3.801207
12.0937,0.876719,3.851555
12.4337,0.887254,3.893028
12.7669,0.899898,3.921462
13.1076,0.908406,3.975043
13.455,0.919551,4.016023
13.7959,0.927508,4.076726
14.138,0.938242,4.123075
14.4418,0.947699,4.168438
14.7419,0.959289,4.218348
15.0453,0.969848,4.263163
15.3496,0.979445,4.320196
15.6659,0.988434,4.378762
15.9808,0.999754,4.400402
16.2837,1.00975,4.444341
16.5892,1.012375,4.425001
16.9126,1.002754,4.372736
17.2159,0.993262,4.322825
17.5215,0.982586,4.283051
17.827,0.974113,4.230127
18.1341,0.962945,4.18838
18.4418,0.951309,4.151345
18.7472,0.941805,4.099024
19.0574,0.931762,4.053606
19.3652,0.92077,4.013174
19.6694,0.9115,3.955594
19.9767,0.89902,3.935049
20.2771,0.887805,3.894124
20.5784,0.878512,3.842625
20.8971,0.868902,3.801152
21.2011,0.858883,3.762747
21.5075,0.847949,3.709166
21.8097,0.838973,3.66846
22.114,0.828145,3.628357
22.4214,0.821945,3.547931
22.7266,0.811668,3.505143
23.0312,0.801906,3.454137
23.3332,0.791676,3.41354
23.6389,0.781715,3.36993
23.9464,0.770828,3.32528
24.2508,0.761055,3.276082
24.5567,0.751984,3.229349
24.8753,0.736539,3.211708
25.1832,0.726602,3.160483
25.4883,0.718715,3.090083
25.802,0.707324,3.066525
26.1301,0.697246,3.026641
26.4318,0.688211,2.980894
26.7423,0.678766,2.936298
27.0496,0.668102,2.900797
27.3546,0.659242,2.846504
27.669,0.648777,2.796649
27.9714,0.637504,2.757696
28.2775,0.62698,2.712223
28.5811,0.618016,2.661656
28.8863,0.607457,2.620237
29.1889,0.596441,2.571039
29.4897,0.58566,2.516746
29.7942,0.57632,2.469247
30.1027,0.565668,2.432266
30.4097,0.55627,2.386629
30.7119,0.546449,2.341047
31.0164,0.536793,2.298369
31.3192,0.526504,2.2455
31.6285,0.519273,2.191974
31.937,0.505656,2.156089
32.2446,0.496879,2.115328
32.5459,0.486531,2.058844
32.8505,0.47568,2.01381
33.1571,0.464852,1.977487
33.4613,0.455395,1.925001
33.7677,0.444684,1.881173
34.0742,0.435004,1.835371
34.3793,0.424211,1.795651
34.6809,0.415012,1.742947
34.9861,0.404641,1.698132
35.2925,0.394492,1.652824
35.5959,0.386078,1.602585
35.9012,0.374734,1.561222
36.2307,0.365195,1.525939
36.5346,0.355691,1.475536
36.8381,0.348906,1.406506
37.1449,0.336637,1.378565
37.4501,0.325879,1.339776
37.7548,0.31457,1.292934
38.2014,0.304809,1.251625
38.505,0.295398,1.202373
38.8103,0.285203,1.152901
39.1165,0.275336,1.104415
39.4188,0.265516,1.062394
39.737,0.254383,1.010731
40.0402,0.242992,0.966299
40.343,0.23452,0.920662
40.6474,0.223937,0.875519
40.9513,0.213426,0.832512
41.28,0.202949,0.790929
41.583,0.193855,0.732417
41.8872,0.184105,0.693245
42.1896,0.175293,0.649362
42.4956,0.164066,0.605807
42.8007,0.153121,0.559951
43.1073,0.143852,0.514588
43.4094,0.133504,0.467362
43.7152,0.123098,0.422218
44.0395,0.11882,0.351709
44.3618,0.107406,0.306181
44.6723,0.094281,0.281418
44.9856,0.085398,0.234631
45.298,0.075637,0.191514
45.6064,0.063766,0.150698
45.9116,0.054883,0.104021
46.2229,0.04327,0.073724
46.5591,0.040598,-0.010428
46.867,0.029734,-0.047737
47.1909,0.019738,-0.092333
47.4981,0.021437,-0.098359
47.8091,0.030309,-0.054366
48.1156,0.045438,-0.022152
48.4342,0.049035,0.040359
48.7437,0.059207,0.083804
49.0492,0.067797,0.129167
49.3642,0.080512,0.179845
49.669,0.089031,0.219784
49.9732,0.099332,0.264051
50.2803,0.112035,0.296649
50.5901,0.116172,0.374883
50.9064,0.13259,0.389511
51.215,0.136199,0.468458
51.525,0.144871,0.518861
51.8395,0.159707,0.549596
52.1461,0.166773,0.615339
52.4544,0.177473,0.661305
52.758,0.188207,0.702833
53.0623,0.197207,0.744251
53.3715,0.206406,0.797613
53.6746,0.221242,0.799311
53.9918,0.226281,0.881709
54.2976,0.236406,0.924223
54.6032,0.247105,0.974298
54.9131,0.255848,1.020757
55.2233,0.267121,1.073954
55.5278,0.276836,1.116961
55.8401,0.292316,1.130603
56.1546,0.29943,1.207796
56.4789,0.30482,1.275074
56.8066,0.317758,1.306302
57.1129,0.327965,1.348597
57.4189,0.337598,1.392535
57.7229,0.347852,1.443432
58.0256,0.357848,1.490383
58.3332,0.369062,1.536568
58.6385,0.387027,1.533336
58.9527,0.391949,1.606585
59.2638,0.398535,1.664493
59.5718,0.408332,1.71539
59.8914,0.424316,1.728867
60.2047,0.430328,1.799541
60.5097,0.439258,1.850273
60.8159,0.448352,1.897389
61.1228,0.461371,1.945601
61.4275,0.46975,2.001264
61.7352,0.485008,2.009098
62.0455,0.490586,2.086511
62.3616,0.501016,2.135818
62.6681,0.511047,2.172306
62.9833,0.514937,2.167156
63.2888,0.521125,2.224353
63.5952,0.530312,2.274866
63.8988,0.540566,2.318859
64.2012,0.551594,2.360387
64.505,0.561074,2.413474
64.8104,0.571574,2.458509
65.1141,0.581535,2.50557
65.4186,0.593746,2.552576
65.7303,0.606391,2.58123
66.0376,0.613445,2.64889
66.3494,0.624672,2.693596
66.6565,0.631434,2.75797
66.9966,0.644301,2.785856
67.2999,0.655117,2.832698
67.6096,0.668805,2.863816
67.9343,0.68002,2.880307
68.2584,0.688785,2.954542
68.5745,0.698723,3.006972
68.9625,0.70518,3.061759
69.2701,0.714496,3.11008
69.5979,0.728195,3.119887
69.9401,0.742328,3.133419
70.2705,0.74882,3.202942
70.5751,0.759555,3.252086
70.8868,0.769727,3.298709
71.1988,0.778891,3.359083
71.5071,0.789707,3.395296
71.8199,0.795297,3.493364
72.1313,0.806781,3.52503
72.4347,0.817059,3.563873
72.7431,0.826668,3.611154
73.0462,0.837227,3.656736
73.3526,0.846484,3.705386
73.6585,0.861777,3.718918
73.9697,0.869652,3.783401
74.2754,0.876777,3.847665
74.5836,0.886773,3.889412
74.891,0.899582,3.904807
75.1979,0.91109,3.950608
75.515,0.922023,3.995588
75.8352,0.930695,4.03087
76.1479,0.941594,4.085218
76.46,0.950535,4.146414
76.7729,0.963156,4.188106
77.1148,0.973152,4.240975
77.4181,0.983734,4.284092
77.7309,0.99291,4.330988
78.0697,1.004687,4.353067
78.3787,1.013148,4.409442
78.6908,1.012012,4.42407
78.9992,1.003809,4.34337
79.3157,0.992219,4.328852
79.6242,0.981156,4.31269
79.9333,0.972309,4.253083
80.2423,0.962605,4.199118
80.5486,0.952434,4.138251
80.8593,0.942203,4.09497
81.1813,0.932477,4.045553
81.4937,0.921895,4.005285
81.8166,0.915215,3.934118
82.1354,0.899957,3.92979
82.4504,0.888602,3.902068
82.7595,0.878172,3.849035
83.068,0.867719,3.806466
83.375,0.858789,3.764719
83.6809,0.85034,3.692402
83.9904,0.839793,3.668624
84.2937,0.828906,3.622768
84.5968,0.819191,3.579871
84.9071,0.81223,3.510019
85.2285,0.801391,3.471613
85.5384,0.789191,3.437427
85.848,0.778586,3.391133
86.156,0.768484,3.349495
86.4608,0.757035,3.307091
86.7664,0.748773,3.26118
87.0725,0.736809,3.20612
87.3807,0.72734,3.16251
87.6892,0.717449,3.115997
87.9954,0.708238,3.072442
88.3014,0.697539,3.032393
88.6068,0.688902,2.983305
88.9174,0.682352,2.906385
89.2254,0.669227,2.898606
89.5381,0.658797,2.849682
89.8455,0.649867,2.797635
90.1609,0.638043,2.754463
90.469,0.630613,2.691185
90.7737,0.621414,2.637111
91.0808,0.610621,2.593173
91.3877,0.600098,2.545838
91.6923,0.589715,2.498174
91.9981,0.580188,2.44914
92.3025,0.566336,2.430513
92.6074,0.556902,2.368112
92.9376,0.548031,2.336719
93.2459,0.535996,2.29048
93.5557,0.525367,2.251253
93.8783,0.517223,2.18014
94.1865,0.505891,2.160801
94.4956,0.495531,2.114561
94.8042,0.485793,2.069746
95.1093,0.477062,2.018467
95.416,0.46559,1.97409
95.7266,0.456848,1.917605
96.0381,0.447707,1.867202
96.3461,0.436809,1.831865
96.6503,0.425594,1.785516
96.9683,0.416125,1.740208
97.2968,0.405168,1.697146
97.6072,0.395137,1.654084
97.9166,0.38732,1.600175
98.2232,0.375801,1.563358
98.5298,0.365652,1.516681
98.8395,0.355504,1.4734
99.1474,0.34859,1.411656
99.4511,0.335301,1.380373
99.7574,0.332172,1.300001
100.0654,0.317488,1.286305
100.3751,0.30632,1.251132
100.6824,0.299371,1.167638
100.9897,0.28968,1.133178
101.2969,0.280176,1.08272
101.6031,0.268938,1.036535
101.9104,0.257676,0.9852
102.2297,0.246883,0.945645
102.5382,0.233195,0.919457
102.8453,0.224863,0.877053
103.1554,0.214223,0.824732
103.4638,0.204027,0.783204
103.7714,0.194371,0.741567
104.079,0.186754,0.679877
104.3871,0.175516,0.655278
104.6945,0.164242,0.602465
104.999,0.154785,0.553321
105.3065,0.144414,0.511958
105.6126,0.138895,0.444955
105.9192,0.127914,0.398386
106.2237,0.118375,0.355544
106.5338,0.10784,0.309085
106.8409,0.097703,0.265037
107.1454,0.089113,0.218085
107.4525,0.079574,0.174476
107.7572,0.073539,0.105116
108.068,0.06134,0.083914
108.3758,0.050852,0.039099
108.68,0.039672,-0.012948
108.9841,0.025844,-0.028178
109.2894,0.017055,-0.074801
109.5965,0.015777,-0.075897
109.9009,0.025586,-0.03278
110.2069,0.035863,0.015431
110.5145,0.04552,0.061452
110.8277,0.059043,0.078819
111.1364,0.068969,0.131688
111.4417,0.080418,0.176119
111.7462,0.091422,0.221427
112.0569,0.101992,0.254902
112.3771,0.110652,0.302127
112.6824,0.120133,0.354557
112.9925,0.125102,0.418931
113.3129,0.137395,0.465883
113.6217,0.145621,0.520888
113.9342,0.155523,0.56143
114.2435,0.167488,0.613422
114.5505,0.177848,0.658511
114.8605,0.18598,0.709407
115.1686,0.197406,0.747977
115.4766,0.21025,0.776958
115.7864,0.217023,0.837168
116.0954,0.226996,0.880723
116.4015,0.236594,0.933975
116.7086,0.246262,0.979284
117.0165,0.256434,1.02514
117.3393,0.265434,1.083158
117.6783,0.277937,1.116906
117.9845,0.287922,1.167255
118.2885,0.297895,1.21207
118.5967,0.30816,1.257159
118.905,0.317852,1.301481
119.2122,0.331855,1.330024
119.5235,0.33877,1.397576
119.8348,0.349141,1.429461
120.149,0.359371,1.475481
120.4588,0.369203,1.535965
120.7676,0.379656,1.57448
121.0805,0.392523,1.608886
121.3896,0.402578,1.639456
121.6985,0.413477,1.692489
122.0071,0.422652,1.735003
122.3258,0.432191,1.781845
122.6524,0.442762,1.829948
122.9671,0.451035,1.879091
123.2842,0.463785,1.938534
123.8103,0.48025,1.932891
123.9836,0.485195,2.008386
124.3534,0.49559,2.056159
124.6713,0.503641,2.123546
124.9929,0.512277,2.174771
